#Wave		#Intensity
1883.957031	30396.277344
1882.277344	30308.576172
1880.597656	30435.189453
1878.916016	29993.435547
1877.236328	30100.410156
1875.554688	30249.638672
1873.873047	30025.708984
1872.191406	30250.394531
1870.509766	30115.632813
1868.826172	29804.312500
1867.142578	30007.761719
1865.458984	30134.169922
1863.775391	29987.466797
1862.091797	30353.632813
1860.408203	29918.923828
1858.722656	30099.505859
1857.037109	30034.316406
1855.351563	29949.562500
1853.666016	29910.041016
1851.980469	30177.826172
1850.292969	29978.628906
1848.607422	30122.812500
1846.919922	29887.578125
1845.232422	29732.208984
1843.542969	30139.669922
1841.855469	29755.636719
1840.166016	29410.871094
1838.478516	29894.824219
1836.789063	30133.505859
1835.097656	29975.257813
1833.408203	30034.980469
1831.716797	29682.996094
1830.027344	29903.482422
1828.335938	30228.998047
1826.644531	29617.427734
1824.951172	29906.830078
1823.259766	29777.365234
1821.566406	29727.478516
1819.873047	29671.611328
1818.179688	29612.765625
1816.486328	29801.375000
1814.792969	29889.449219
1813.097656	29700.175781
1811.402344	29361.119141
1809.707031	29530.130859
1808.011719	29904.291016
1806.316406	29295.818359
1804.619141	29738.740234
1802.923828	29913.503906
1801.226563	29522.433594
1799.529297	29568.472656
1797.830078	29422.994141
1796.132813	29726.296875
1794.433594	29512.050781
1792.734375	29172.306641
1791.035156	29300.570313
1789.335938	29463.146484
1787.636719	29494.167969
1785.935547	29477.371094
1784.234375	29675.642578
1782.533203	29334.789063
1780.832031	29527.029297
1779.130859	29446.048828
1777.429688	29412.851563
1775.726563	29234.953125
1774.023438	29188.386719
1772.320313	29223.855469
1770.617188	29143.015625
1768.912109	29032.394531
1767.207031	29102.140625
1765.503906	29064.578125
1763.798828	29113.429688
1762.091797	29111.619141
1760.386719	29027.910156
1758.679688	29081.195313
1756.974609	29010.919922
1755.267578	28968.945313
1753.560547	28769.289063
1751.851563	28773.488281
1750.144531	29017.099609
1748.435547	28829.449219
1746.726563	28985.238281
1745.017578	28882.376953
1743.308594	29000.939453
1741.597656	28786.703125
1739.888672	28926.021484
1738.177734	28878.189453
1736.466797	28825.919922
1734.753906	28761.798828
1733.042969	28696.218750
1731.330078	28672.203125
1729.619141	29151.003906
1727.906250	28940.050781
1726.191406	28930.816406
1724.478516	28669.599609
1722.763672	28790.832031
1721.050781	28581.609375
1719.335938	28625.775391
1717.621094	28581.062500
1715.904297	28450.488281
1714.189453	28494.646484
1712.472656	28686.781250
1710.755859	28787.089844
1709.039063	28601.837891
1707.322266	28631.123047
1705.603516	28530.267578
1703.886719	28355.533203
1702.167969	28566.646484
1700.449219	28591.470703
1698.730469	28634.009766
1697.009766	28567.222656
1695.291016	28589.068359
1693.570313	28447.015625
1691.849609	28474.777344
1690.128906	28163.085938
1688.406250	28326.638672
1686.685547	28245.238281
1684.962891	28035.556641
1683.240234	28467.388672
1681.517578	28114.746094
1679.792969	28351.814453
1678.070313	28133.441406
1676.345703	28305.572266
1674.621094	28010.707031
1672.896484	28115.044922
1671.171875	28129.525391
1669.445313	28227.898438
1667.720703	28131.968750
1665.994141	28184.681641
1664.267578	28056.437500
1662.539063	28013.544922
1660.812500	27982.431641
1659.083984	28024.832031
1657.355469	27955.511719
1655.626953	28127.201172
1653.898438	28012.341797
1652.169922	27863.750000
1650.439453	28033.871094
1648.708984	27866.248047
1646.978516	27466.787109
1645.248047	27928.902344
1643.517578	27792.214844
1641.785156	27624.781250
1640.052734	27655.398438
1638.320313	27568.703125
1636.587891	27659.414063
1634.855469	27625.511719
1633.121094	27672.208984
1631.386719	27729.138672
1629.652344	27394.996094
1627.917969	27492.953125
1626.183594	27486.927734
1624.447266	27463.337891
1622.712891	27356.347656
1620.976563	27278.662109
1619.240234	27026.951172
1617.501953	27183.341797
1615.765625	27295.798828
1614.027344	27042.781250
1612.289063	27174.212891
1610.550781	27317.273438
1608.812500	26845.302734
1607.072266	27093.517578
1605.333984	27126.986328
1603.593750	26843.669922
1601.853516	26883.013672
1600.111328	26891.695313
1598.371094	26866.818359
1596.628906	26979.048828
1594.886719	26987.697266
1593.144531	26844.722656
1591.402344	26773.228516
1589.660156	27063.148438
1587.916016	26966.865234
1586.171875	27041.039063
1584.427734	26742.382813
1582.683594	26973.808594
1580.937500	26577.765625
1579.193359	26740.724609
1577.447266	26782.845703
1575.701172	26823.492188
1573.955078	26763.769531
1572.207031	26593.568359
1570.460938	26693.824219
1568.712891	26478.654297
1566.964844	26482.984375
1565.216797	26667.447266
1563.466797	26443.705078
1561.718750	26421.896484
1559.968750	26265.082031
1558.218750	26500.222656
1556.468750	26472.605469
1554.716797	26674.220703
1552.966797	26495.724609
1551.214844	26389.810547
1549.462891	26421.675781
1547.710938	26091.146484
1545.957031	25891.189453
1544.205078	26121.630859
1542.451172	26228.841797
1540.697266	26162.216797
1538.943359	25856.712891
1537.187500	25758.347656
1535.433594	25987.105469
1533.677734	25922.029297
1531.921875	25904.720703
1530.166016	25880.183594
1528.410156	25593.933594
1526.652344	25786.322266
1524.894531	25666.427734
1523.136719	25842.816406
1521.378906	25425.349609
1519.621094	25594.486328
1517.861328	25611.917969
1516.101563	25593.248047
1514.341797	25610.667969
1512.582031	25604.990234
1510.822266	25300.656250
1509.060547	25361.396484
1507.298828	25386.054688
1505.539063	25459.722656
1503.775391	25234.964844
1502.013672	25419.599609
1500.250000	25366.408203
1498.488281	25562.453125
1496.724609	25111.746094
1494.960938	25353.833984
1493.195313	25280.541016
1491.431641	25421.728516
1489.666016	25184.410156
1487.900391	25181.689453
1486.134766	25331.429688
1484.367188	25128.794922
1482.601563	25187.902344
1480.833984	25028.503906
1479.066406	25448.296875
1477.298828	25181.156250
1475.529297	25185.607422
1473.761719	25159.898438
1471.992188	25088.253906
1470.222656	25030.994141
1468.453125	25184.718750
1466.681641	24764.455078
1464.912109	24948.291016
1463.140625	25173.630859
1461.369141	25080.560547
1459.597656	25102.208984
1457.824219	24993.423828
1456.052734	25151.201172
1454.279297	24914.953125
1452.505859	24847.812500
1450.732422	24717.695313
1448.957031	24968.437500
1447.183594	24719.552734
1445.408203	24546.615234
1443.632813	24448.146484
1441.857422	24641.505859
1440.080078	24823.333984
1438.304688	24786.339844
1436.527344	24792.242188
1434.750000	24372.283203
1432.972656	24471.136719
1431.193359	24389.964844
1429.414063	24417.363281
1427.636719	24334.806641
1425.857422	24460.693359
1424.076172	24453.800781
1422.296875	24198.642578
1420.515625	24016.347656
1418.734375	24156.447266
1416.953125	23904.371094
1415.171875	23907.578125
1413.388672	23866.599609
1411.607422	23953.876953
1409.824219	23759.048828
1408.041016	23575.699219
1406.255859	23802.523438
1404.472656	23644.867188
1402.687500	23803.251953
1400.902344	23741.001953
1399.117188	23458.265625
1397.332031	23458.699219
1395.544922	23461.974609
1393.759766	23820.673828
1391.972656	23504.052734
1390.185547	23343.886719
1388.396484	23432.423828
1386.609375	23201.320313
1384.820313	23206.058594
1383.031250	23291.720703
1381.242188	23297.851563
1379.451172	23125.164063
1377.662109	23195.173828
1375.871094	22876.474609
1374.080078	23111.015625
1372.289063	23148.365234
1370.496094	23188.529297
1368.705078	23354.808594
1366.912109	23307.054688
1365.119141	22845.671875
1363.326172	22983.583984
1361.531250	23297.015625
1359.738281	22984.582031
1357.943359	23023.291016
1356.148438	22958.685547
1354.353516	22843.177734
1352.556641	22884.714844
1350.759766	22970.068359
1348.964844	22953.593750
1347.166016	22826.875000
1345.369141	22783.583984
1343.572266	22949.406250
1341.773438	22671.632813
1339.974609	22835.988281
1338.175781	22633.191406
1336.376953	22652.091797
1334.576172	22654.046875
1332.775391	22485.281250
1330.974609	22550.744141
1329.173828	22432.843750
1327.373047	22395.361328
1325.570313	22549.601563
1323.767578	22299.300781
1321.964844	22635.248047
1320.162109	22509.000000
1318.359375	22533.500000
1316.554688	22314.398438
1314.750000	22141.847656
1312.945313	22112.927734
1311.140625	22292.265625
1309.335938	22533.417969
1307.529297	22294.863281
1305.722656	22024.074219
1303.916016	22273.554688
1302.109375	22243.226563
1300.300781	21986.677734
1298.492188	22120.792969
1296.685547	21979.556641
1294.875000	21933.869141
1293.066406	22056.669922
1291.257813	21994.138672
1289.447266	21977.941406
1287.636719	21977.183594
1285.826172	22032.527344
1284.013672	21863.474609
1282.203125	21604.769531
1280.390625	21874.613281
1278.578125	21914.509766
1276.765625	22038.447266
1274.951172	21917.201172
1273.138672	21954.253906
1271.324219	21807.875000
1269.509766	22060.498047
1267.693359	21940.748047
1265.878906	21779.076172
1264.062500	22053.910156
1262.246094	21727.257813
1260.429688	21869.146484
1258.613281	21792.900391
1256.794922	22224.001953
1254.978516	21922.750000
1253.160156	21785.072266
1251.341797	21940.744141
1249.521484	21680.250000
1247.703125	21901.482422
1245.882813	21865.810547
1244.062500	21869.222656
1242.240234	21975.865234
1240.419922	21888.591797
1238.597656	21660.521484
1236.777344	21737.857422
1234.953125	21787.279297
1233.130859	21804.628906
1231.308594	21947.349609
1229.484375	21780.800781
1227.660156	21707.623047
1225.835938	22004.794922
1224.011719	22087.484375
1222.185547	22019.845703
1220.359375	22099.707031
1218.533203	21916.648438
1216.707031	22020.134766
1214.880859	21917.808594
1213.052734	22143.560547
1211.224609	21998.169922
1209.396484	22323.830078
1207.568359	22240.966797
1205.738281	22451.156250
1203.910156	22501.583984
1202.080078	22595.017578
1200.250000	23008.976563
1198.417969	23300.652344
1196.587891	23568.611328
1194.755859	24022.277344
1192.923828	24263.603516
1191.091797	24619.869141
1189.259766	25750.667969
1187.425781	26256.068359
1185.591797	27412.292969
1183.757813	28320.089844
1181.923828	30038.843750
1180.087891	31201.714844
1178.253906	33354.972656
1176.417969	35457.437500
1174.582031	37437.203125
1172.744141	39192.015625
1170.908203	41414.761719
1169.070313	42862.351563
1167.232422	44441.957031
1165.394531	45209.746094
1163.556641	46189.921875
1161.716797	46539.855469
1159.876953	47136.789063
1158.037109	47179.863281
1156.197266	47652.156250
1154.355469	47381.855469
1152.515625	46769.550781
1150.673828	46674.730469
1148.832031	46530.312500
1146.988281	46060.605469
1145.146484	45716.531250
1143.302734	45028.117188
1141.458984	44287.664063
1139.615234	43415.316406
1137.771484	43152.015625
1135.925781	42255.542969
1134.080078	41790.289063
1132.234375	41018.375000
1130.388672	40413.281250
1128.541016	40503.066406
1126.695313	39916.238281
1124.847656	39535.898438
1122.998047	39176.343750
1121.150391	38642.429688
1119.302734	38547.027344
1117.453125	37920.093750
1115.603516	37925.140625
1113.753906	37718.746094
1111.902344	37804.816406
1110.050781	37621.871094
1108.201172	37561.109375
1106.347656	37726.703125
1104.496094	37563.089844
1102.644531	37821.832031
1100.791016	37366.296875
1098.937500	37008.269531
1097.083984	36403.781250
1095.228516	35725.601563
1093.375000	35077.855469
1091.519531	34404.390625
1089.664063	33844.847656
1087.808594	33397.777344
1085.951172	32762.095703
1084.093750	32296.322266
1082.236328	31993.505859
1080.378906	31269.701172
1078.521484	30989.125000
1076.662109	30678.607422
1074.804688	30122.291016
1072.945313	29944.613281
1071.083984	29721.949219
1069.224609	28682.876953
1067.363281	28337.740234
1065.501953	27801.693359
1063.640625	27364.132813
1061.779297	26742.609375
1059.916016	26207.292969
1058.054688	25339.523438
1056.191406	25071.957031
1054.326172	24391.558594
1052.462891	24287.837891
1050.597656	23763.226563
1048.732422	23451.316406
1046.867188	22846.798828
1045.001953	22714.933594
1043.134766	22117.664063
1041.269531	22036.369141
1039.402344	21473.537109
1037.535156	21237.376953
1035.666016	20762.009766
1033.796875	20091.099609
1031.929688	19771.150391
1030.060547	19541.029297
1028.189453	19335.464844
1026.320313	19193.828125
1024.449219	19277.660156
1022.578125	19194.474609
1020.707031	19287.765625
1018.833984	19018.712891
1016.962891	19234.093750
1015.089844	19330.019531
1013.216797	19305.216797
1011.343750	19337.361328
1009.468750	19250.216797
1007.593750	19370.433594
1005.718750	19216.937500
1003.843750	19138.003906
1001.968750	19259.511719
1000.091797	18947.748047
998.214844	18929.832031
996.337891	18918.689453
994.460938	18760.087891
992.583984	18832.843750
990.705078	18768.988281
988.826172	18787.628906
986.947266	18864.376953
985.066406	18781.636719
983.187500	18646.244141
981.306641	18752.681641
979.425781	18599.800781
977.544922	18573.892578
975.662109	18601.984375
973.779297	18403.357422
971.896484	18235.853516
970.013672	18119.677734
968.130859	18029.175781
966.246094	17952.195313
964.361328	18101.687500
962.476563	17787.556641
960.591797	17888.515625
958.705078	17802.203125
956.820313	17812.886719
954.933594	17748.169922
953.044922	17723.861328
951.158203	17711.673828
949.269531	17539.394531
947.382813	17344.326172
945.492188	17359.125000
943.603516	17415.591797
941.714844	17277.136719
939.824219	17261.029297
937.933594	17243.583984
936.042969	17103.916016
934.150391	17179.169922
932.257813	16973.794922
930.367188	16859.785156
928.472656	16795.478516
926.580078	16694.976563
924.687500	16858.753906
922.792969	16679.164063
920.898438	16480.884766
919.001953	16686.146484
917.107422	16441.052734
915.210938	16371.579102
913.314453	16437.417969
911.417969	16405.468750
909.521484	16216.892578
907.623047	16099.343750
905.724609	16074.181641
903.826172	16267.102539
901.927734	16212.484375
900.029297	16129.807617
898.128906	16053.853516
896.228516	15848.281250
894.328125	15839.239258
892.425781	15750.041016
890.525391	15763.731445
888.623047	15873.559570
886.720703	15688.287109
884.816406	15597.867188
882.914063	15675.625977
881.009766	15651.954102
879.105469	15542.928711
877.201172	15493.958984
875.294922	15699.650391
873.390625	15464.061523
871.484375	15340.516602
869.578125	15398.215820
867.669922	15349.330078
865.763672	15211.246094
863.855469	15138.460938
861.947266	15293.310547
860.037109	15361.590820
858.128906	15129.170898
856.218750	15282.580078
854.308594	15067.570313
852.398438	15173.058594
850.486328	14988.743164
848.576172	14844.377930
846.664063	14839.572266
844.751953	14906.492188
842.837891	14964.083008
840.925781	14756.128906
839.011719	14779.215820
837.097656	14609.880859
835.183594	14724.528320
833.267578	14564.567383
831.353516	14555.847656
829.437500	14593.531250
827.519531	14629.870117
825.603516	14590.659180
823.685547	14436.209961
821.767578	14510.964844
819.849609	14637.327148
817.931641	14829.820313
816.011719	14744.278320
814.093750	14637.602539
812.173828	14814.082031
810.251953	14821.181641
808.332031	14600.841797
806.410156	14629.137695
804.488281	14724.824219
802.566406	14542.976563
800.642578	14802.447266
798.720703	14628.588867
796.796875	14717.578125
794.873047	14716.755859
792.947266	14826.795898
791.023438	14576.558594
789.097656	14541.466797
787.171875	14646.190430
785.246094	14768.005859
783.318359	14757.935547
781.390625	14759.730469
779.462891	14955.215820
777.535156	14821.275391
775.607422	14782.222656
773.677734	14741.869141
771.748047	14759.455078
769.818359	14667.795898
767.888672	14595.916016
765.957031	14597.733398
764.025391	14474.609375
762.093750	14258.188477
760.162109	14304.774414
758.228516	14393.392578
756.296875	14361.086914
754.363281	14475.918945
752.427734	14263.685547
750.494141	14530.790039
748.558594	14464.346680
746.623047	14445.179688
744.687500	14855.060547
742.751953	14699.385742
740.814453	14850.658203
738.876953	14891.722656
736.939453	15052.050781
735.001953	14791.629883
733.062500	15203.459961
731.123047	15083.281250
729.183594	15570.797852
727.244141	15800.159180
725.302734	16265.020508
723.363281	16643.289063
721.421875	16694.294922
719.478516	16558.228516
717.537109	16414.378906
715.593750	16424.867188
713.650391	16328.168945
711.707031	16532.074219
709.763672	16363.536133
707.818359	16678.355469
705.873047	16855.910156
703.927734	16807.519531
701.982422	17080.238281
700.035156	17121.853516
698.087891	17188.236328
696.140625	17208.933594
694.193359	17065.318359
692.244141	16938.714844
690.294922	17055.902344
688.345703	17040.119141
686.396484	17174.158203
684.447266	17582.947266
682.496094	17652.984375
680.544922	17660.500000
678.593750	17938.724609
676.640625	17993.007813
674.689453	18385.496094
672.736328	18528.082031
670.783203	18918.951172
668.828125	19270.632813
666.875000	19316.726563
664.919922	19253.652344
662.964844	19403.646484
661.007813	19218.498047
659.052734	19289.222656
657.095703	19243.080078
655.138672	19177.492188
653.179688	18964.021484
651.222656	18710.437500
649.263672	18530.892578
647.304688	18446.082031
645.345703	18515.562500
643.384766	18380.248047
641.423828	18359.013672
639.462891	18348.148438
637.501953	18456.427734
635.541016	18554.296875
633.578125	18439.835938
631.615234	18387.542969
629.652344	18220.128906
627.689453	18241.638672
625.724609	18450.640625
623.759766	18479.837891
621.794922	18702.898438
619.828125	18823.763672
617.863281	18678.435547
615.896484	18645.544922
613.929688	18706.931641
611.960938	18604.332031
609.994141	18540.500000
608.025391	18275.400391
606.056641	18269.726563
604.087891	17915.822266
602.117188	17727.132813
600.146484	17826.007813
598.175781	18024.072266
596.205078	17691.173828
594.232422	17769.369141
592.261719	17808.888672
590.289063	17811.046875
588.314453	18051.345703
586.341797	18343.005859
584.367188	18184.197266
582.392578	18278.871094
580.417969	18742.587891
578.441406	19217.652344
576.466797	19399.410156
574.490234	19671.037109
572.511719	19410.626953
570.535156	18816.373047
568.556641	18386.779297
566.578125	17845.693359
564.599609	17915.839844
562.621094	17475.216797
560.640625	17463.304688
558.660156	17397.527344
556.679688	17276.638672
554.697266	17249.394531
552.716797	17240.103516
550.734375	17361.517578
548.751953	17266.369141
546.767578	17191.755859
544.785156	17263.150391
542.800781	17612.298828
540.816406	17483.898438
538.830078	17597.388672
536.845703	17506.146484
534.859375	17249.964844
532.873047	16896.734375
530.884766	16616.533203
528.898438	16346.690430
526.910156	16110.196289
524.921875	16030.930664
522.933594	15712.891602
520.943359	15695.041016
518.953125	15414.250000
516.962891	15469.215820
514.972656	15210.301758
512.980469	15220.643555
510.988281	14884.124023
508.996094	15036.048828
507.003906	14680.615234
505.009766	14766.250977
503.017578	14389.394531
501.021484	14486.518555
499.027344	14512.286133
497.033203	14403.097656
495.037109	14349.959961
493.041016	14018.188477
491.042969	14124.180664
489.046875	14036.806641
487.048828	14117.309570
485.050781	13999.467773
483.052734	13912.182617
481.052734	13854.161133
479.052734	13681.844727
477.052734	13444.842773
475.052734	13484.733398
473.050781	13464.946289
471.050781	13343.645508
469.048828	13266.806641
467.044922	13484.270508
465.042969	13609.056641
463.039063	13652.643555
461.035156	13871.116211
459.031250	14132.564453
457.025391	14640.917969
455.019531	15202.215820
453.013672	16005.085938
451.007813	17894.984375
449.000000	20900.220703
446.994141	26133.437500
444.984375	39324.656250
442.976563	70974.968750
440.968750	125183.820313
438.958984	170467.140625
436.949219	167765.203125
434.937500	121822.093750
432.927734	82090.812500
430.916016	59711.195313
428.904297	46864.398438
426.892578	38739.476563
424.878906	33119.605469
422.865234	28911.673828
420.851563	25513.017578
418.837891	22911.693359
416.822266	21225.617188
414.806641	19926.031250
412.791016	19010.130859
410.775391	18471.335938
408.757813	17824.494141
406.740234	17111.236328
404.722656	16381.960938
402.705078	15432.808594
400.685547	14684.170898
398.666016	14017.660156
396.646484	13517.474609
394.626953	13061.536133
392.605469	13013.069336
390.583984	12969.650391
388.562500	12722.727539
386.541016	12683.166016
384.517578	12604.696289
382.494141	12322.890625
380.470703	12254.585938
378.447266	12285.439453
376.421875	12082.947266
374.396484	12195.344727
372.371094	12090.770508
370.343750	12181.797852
368.318359	12159.988281
366.291016	12298.560547
364.261719	12237.898438
362.234375	12423.966797
360.205078	12512.287109
358.175781	12795.822266
356.146484	13099.236328
354.115234	13372.473633
352.085938	13795.663086
350.054688	14572.512695
348.021484	15293.969727
345.990234	16300.023438
343.957031	17556.726563
341.923828	19073.882813
339.890625	21069.855469
337.855469	24395.808594
335.820313	27953.531250
333.785156	30093.060547
331.750000	30175.412109
329.712891	28330.595703
327.675781	25794.595703
325.638672	22837.220703
323.601563	20176.708984
321.562500	19025.285156
319.523438	17990.289063
317.484375	16873.607422
315.445313	16168.379883
313.404297	15082.578125
311.363281	14390.589844
309.322266	13878.112305
307.279297	13363.401367
305.238281	12779.303711
303.195313	12384.475586
301.150391	12208.609375
299.107422	12275.150391
297.062500	11826.075195
295.017578	11891.433594
292.972656	11763.044922
290.925781	11813.486328
288.878906	11841.559570
286.832031	11940.343750
284.785156	11994.418945
282.736328	11830.191406
280.687500	11813.590820
278.638672	11834.183594
276.589844	11667.635742
274.539063	11696.923828
272.488281	11715.048828
270.437500	11549.889648
268.386719	11617.558594
266.333984	11743.364258
264.281250	11908.702148
262.228516	12051.688477
260.173828	11911.378906
258.119141	11907.149414
256.064453	11837.404297
254.009766	11991.379883
251.955078	11961.181641
249.898438	11987.817383
247.841797	12032.961914
245.783203	11878.077148
243.726563	12010.856445
241.667969	11994.256836
239.609375	12057.852539
237.548828	11948.744141
235.488281	11913.671875
233.427734	11977.234375
231.367188	11911.358398
229.306641	12030.330078
227.244141	11986.642578
225.181641	12061.199219
223.119141	12022.447266
221.054688	11999.714844
218.990234	12239.099609
216.925781	12307.358398
214.861328	12311.624023
212.794922	12784.371094
210.728516	13087.232422
208.662109	13162.573242
206.595703	13585.592773
204.527344	13510.904297
202.458984	13183.269531
200.390625	12427.313477
198.320313	11973.689453
196.251953	11303.091797
194.181641	10894.145508
192.109375	10788.352539
190.039063	10461.896484
187.966797	10348.908203
185.894531	10179.598633
183.820313	9809.432617
181.748047	9637.893555
179.673828	9504.405273
177.597656	9199.577148
175.523438	9196.009766
173.447266	8961.164063
171.371094	8798.616211
169.294922	8732.773438
167.216797	8598.487305
165.140625	8591.404297
163.060547	8523.215820
160.982422	8303.553711
158.902344	8220.813477
156.824219	8157.652832
154.742188	8096.964844
152.662109	7899.602051
150.580078	7842.669434
148.498047	7882.141602
146.416016	7792.309570
144.332031	7792.753418
142.250000	7745.653809
140.164063	7731.481934
138.080078	7712.442871
135.994141	7600.837891
133.908203	7642.728027
131.822266	7671.203613
129.736328	7455.016602
127.648438	7443.368164
125.560547	7452.404785
123.472656	7403.057617
121.382813	7314.826172
119.292969	7354.274902
117.203125	7466.618164
115.113281	7469.556641
113.021484	7551.444336
110.929688	7775.365234
108.837891	8064.726563
106.746094	8736.254883
104.652344	14841.008789
102.558594	77362.960938
100.462891	119131.312500
98.369141	119288.500000
96.273438	25753.146484
94.177734	9808.534180
92.080078	7873.633789
89.984375	7447.678223
87.886719	7110.335938
85.787109	7170.235840
83.689453	6968.687012
81.589844	6585.749023
79.490234	6505.417480
77.390625	6367.078613
75.289063	5670.248535
73.187500	3950.014404
71.085938	2184.753174
68.982422	957.997620
66.878906	369.572723
64.775391	191.983017
62.671875	129.162552
60.566406	103.785919
58.462891	89.280945
56.355469	86.845352
54.250000	90.440369
52.142578	67.511230
50.035156	65.083160
47.927734	67.476067
45.818359	69.867714
43.708984	61.419388
41.599609	61.403370
39.490234	63.794697
37.378906	64.981407
35.267578	66.167480
33.156250	75.772041
31.042969	69.740158
28.929688	78.136642
26.816406	67.300117
24.703125	67.282509
22.587891	63.661419
20.472656	72.050659
18.357422	64.828606
16.240234	75.613556
14.125000	81.593231
12.007813	87.569763
9.888672	92.343864
7.769531	107.906059
5.652344	744.356262
3.531250	3542.253174
1.412109	4043.289063
-0.708984	3631.416016
-2.830078	753.152954
-4.953125	161.603973
-7.074219	102.920616
-9.197266	68.196861
-11.320313	69.375015
-13.445313	69.356728
-15.570313	59.774517
-17.695313	57.368401
-19.820313	48.989243
-21.947266	56.143574
-24.074219	57.322975
-26.201172	51.338261
-28.330078	59.679874
-30.458984	15.512664
-32.587891	9.543729
